t (s),V (mV)
0,14.7913
1.049,14.7888
2.099,14.7819
3.141,14.7763
4.14,14.7721
5.141,14.7653
6.141,14.7601
7.14,14.7556
8.141,14.7496
9.141,14.7443
10.141,14.738
11.14,14.7326
12.14,14.7266
13.14,14.7199
14.141,14.7132
15.141,14.7068
16.14,14.7022
17.141,14.6953
18.14,14.6879
19.14,14.6818
20.14,14.6753
21.141,14.669
22.141,14.6634
23.141,14.6559
24.141,14.6504
25.141,14.6452
26.141,14.6378
27.141,14.6308
28.14,14.6247
29.14,14.6176
30.14,14.6117
31.14,14.6052
32.141,14.5985
33.14,14.5914
34.141,14.585
35.141,14.5783
36.141,14.5717
37.14,14.5647
38.14,14.5581
39.14,14.5517
40.141,14.5446
41.141,14.5399
42.14,14.534
43.14,14.5252
44.14,14.519
45.14,14.5129
46.14,14.5058
47.14,14.4995
48.141,14.4932
49.141,14.4863
50.14,14.4805
51.141,14.4733
52.14,14.4672
53.14,14.4604
54.141,14.4537
55.14,14.4477
56.14,14.4409
57.14,14.4355
58.141,14.4283
59.14,14.4218
60.14,14.4147
61.14,14.4083
62.14,14.4022
63.14,14.3955
64.14,14.389
65.14,14.3832
66.14,14.3761
67.14,14.3698
68.141,14.3629
69.14,14.3569
70.14,14.3504
71.14,14.3443
72.14,14.3374
73.141,14.3325
74.14,14.3256
75.141,14.3189
76.14,14.3124
77.14,14.3056
78.14,14.3002
79.141,14.2936
80.14,14.2883
81.141,14.2832
82.141,14.2761
83.14,14.2703
84.14,14.2614
85.14,14.254
86.14,14.2501
87.14,14.2442
88.14,14.2389
89.141,14.2333
90.141,14.2261
91.14,14.2209
92.14,14.2141
93.14,14.2082
94.14,14.203
95.14,14.1962
96.14,14.19
97.14,14.1854
98.14,14.1791
99.141,14.1739
100.14,14.1684
101.141,14.1615
102.14,14.155
103.141,14.1494
104.14,14.1431
105.141,14.1383
106.141,14.1313
107.14,14.126
108.14,14.1191
109.141,14.1141
110.14,14.1073
111.14,14.1014
112.141,14.0965
113.141,14.0904
114.14,14.0839
115.141,14.0785
116.141,14.0729
117.14,14.0658
118.141,14.0598
119.141,14.0548
120.14,14.0485
121.141,14.0428
122.14,14.0366
123.14,14.0305
124.14,14.0239
125.14,14.0187
126.14,14.0123
127.14,14.0068
128.14,14.0008
129.14,13.995
130.141,13.9897
131.14,13.9832
132.14,13.9762
133.14,13.9716
134.14,13.9667
135.14,13.9592
136.141,13.9544
137.141,13.9485
138.14,13.9422
139.14,13.9369
140.14,13.9311
141.141,13.9257
142.14,13.9197
143.14,13.9136
144.141,13.9076
145.141,13.902
146.14,13.8953
147.14,13.8902
148.14,13.8853
149.14,13.8794
150.14,13.8742
151.14,13.8678
152.14,13.8624
153.141,13.8571
154.14,13.85
155.14,13.845
156.141,13.8382
157.14,13.8332
158.14,13.8264
159.14,13.821
160.141,13.8164
161.14,13.8106
162.14,13.8051
163.141,13.8015
164.14,13.7932
165.14,13.7876
166.141,13.7834
167.14,13.7775
168.14,13.772
169.141,13.7677
170.14,13.7613
171.141,13.7555
172.14,13.7501
173.141,13.745
174.14,13.7395
175.141,13.7337
176.141,13.7287
177.14,13.7229
178.141,13.7176
179.14,13.7126
180.141,13.7069
181.14,13.7013
182.141,13.697
183.14,13.6906
184.14,13.6853
185.14,13.6798
186.14,13.6739
187.14,13.667
188.14,13.6628
189.141,13.6578
190.14,13.652
191.14,13.6471
192.14,13.6409
193.141,13.6354
194.141,13.6294
195.141,13.6259
196.14,13.6182
197.14,13.6135
198.14,13.608
199.14,13.6035
200.14,13.5971
201.141,13.5922
202.141,13.5878
203.14,13.582
204.14,13.577
205.141,13.5711
206.141,13.5667
207.14,13.5617
208.14,13.5558
209.14,13.5512
210.141,13.5448
211.141,13.5412
212.14,13.535
213.141,13.5306
214.14,13.5248
215.141,13.5205
216.141,13.5145
217.14,13.51
218.14,13.5051
219.14,13.4996
220.14,13.4939
221.141,13.4887
222.14,13.4837
223.141,13.4788
224.14,13.473
225.14,13.4675
226.141,13.4624
227.14,13.4576
228.14,13.4512
229.141,13.447
230.14,13.442
231.141,13.4364
232.14,13.431
233.141,13.4252
234.141,13.4205
235.14,13.4149
236.141,13.4102
237.14,13.4035
238.14,13.4002
239.14,13.3938
240.141,13.3884
241.14,13.3831
242.14,13.3778
243.141,13.3737
244.14,13.3678
245.141,13.3633
246.14,13.3573
247.141,13.3522
248.14,13.3472
249.141,13.3428
250.14,13.3365
251.14,13.3314
252.14,13.3261
253.141,13.3211
254.14,13.3162
255.141,13.3123
256.14,13.3064
257.14,13.302
258.141,13.2965
259.14,13.2901
260.14,13.288
261.14,13.2801
262.141,13.2755
263.14,13.271
264.141,13.2668
265.14,13.2617
266.141,13.2573
267.141,13.2527
268.14,13.2479
269.14,13.2425
270.14,13.2377
271.141,13.233
272.141,13.2274
273.14,13.22
274.14,13.2173
275.141,13.2125
276.14,13.2068
277.14,13.2027
278.14,13.1981
279.14,13.1924
280.141,13.1879
281.14,13.1812
282.14,13.179
283.14,13.173
284.141,13.1688
285.141,13.1644
286.14,13.1589
287.14,13.154
288.141,13.1494
289.141,13.1456
290.14,13.1407
291.14,13.1354
292.141,13.131
293.141,13.1252
294.14,13.1207
295.14,13.1155
296.14,13.1115
297.141,13.1067
298.14,13.1025
299.14,13.0966
300.141,13.0927
301.14,13.0876
302.14,13.0833
303.141,13.0784
304.141,13.0748
305.141,13.0688
306.141,13.064
307.141,13.0586
308.141,13.0539
309.141,13.0497
310.141,13.0441
311.141,13.0397
312.141,13.0348
313.141,13.0308
314.141,13.0254
315.141,13.0203
316.141,13.0155
317.141,13.0116
318.141,13.0068
319.141,13.0014
320.141,12.9966
321.14,12.9921
322.14,12.9871
323.14,12.9825
324.14,12.9782
325.14,12.9736
326.141,12.9699
327.14,12.9644
328.14,12.96
329.141,12.9562
330.14,12.9509
331.141,12.9458
332.14,12.942
333.14,12.9364
334.141,12.9316
335.14,12.9272
336.14,12.9206
337.14,12.9166
338.14,12.912
339.141,12.9084
340.14,12.9043
341.14,12.8985
342.14,12.8946
343.14,12.8889
344.141,12.8848
345.14,12.8809
346.141,12.8751
347.14,12.8704
348.141,12.8659
349.14,12.861
350.141,12.8569
351.14,12.8521
352.14,12.8483
353.141,12.8442
354.141,12.8405
355.14,12.8349
356.14,12.8304
357.141,12.8263
358.141,12.8223
359.141,12.8172
360.14,12.8124
361.14,12.8083
362.141,12.8039
363.141,12.7995
364.14,12.7946
365.14,12.7907
366.141,12.7865
367.141,12.7825
368.14,12.7767
369.14,12.7732
370.14,12.7689
371.141,12.7645
372.141,12.7603
373.14,12.7561
374.14,12.751
375.141,12.7477
376.14,12.7426
377.141,12.7377
378.141,12.7342
379.14,12.7296
380.14,12.7249
381.14,12.7202
382.141,12.7161
383.141,12.7113
384.14,12.7069
385.14,12.7022
386.14,12.6983
387.141,12.6929
388.141,12.6912
389.141,12.6951
390.14,12.6779
391.14,12.6744
392.141,12.6696
393.141,12.6624
394.14,12.6573
395.14,12.6542
396.14,12.6488
397.141,12.6444
398.14,12.6389
399.14,12.6347
400.141,12.6316
401.141,12.625
402.14,12.6206
403.14,12.616
404.141,12.6106
405.14,12.6074
406.141,12.6031
407.141,12.5982
408.14,12.5943
409.141,12.5899
410.14,12.5866
411.14,12.5828
412.14,12.5787
413.141,12.5735
414.14,12.5698
415.141,12.5657
416.14,12.5617
417.141,12.557
418.141,12.553
419.14,12.5485
420.141,12.5446
421.141,12.5401
422.14,12.5367
423.141,12.5325
424.141,12.528
425.14,12.5244
426.14,12.5195
427.141,12.5148
428.141,12.5103
429.14,12.5075
430.141,12.5032
431.141,12.4995
432.141,12.4954
433.14,12.4915
434.141,12.4869
435.14,12.484
436.141,12.4795
437.14,12.4762
438.141,12.4714
439.14,12.4672
440.141,12.463
441.14,12.4604
442.141,12.4559
443.14,12.4519
444.14,12.4485
445.141,12.4441
446.14,12.4404
447.141,12.4361
448.14,12.4322
449.141,12.4277
450.14,12.4233
451.141,12.419
452.14,12.416
453.141,12.4102
454.141,12.4067
455.14,12.4042
456.141,12.3985
457.14,12.3941
458.14,12.3898
459.14,12.3862
460.14,12.3816
461.14,12.3781
462.14,12.3741
463.14,12.37
464.141,12.3658
465.141,12.3615
466.14,12.3578
467.141,12.3529
468.14,12.3484
469.141,12.3444
470.14,12.3418
471.141,12.3367
472.141,12.3324
473.14,12.3273
474.141,12.3237
475.14,12.32
476.141,12.3163
477.141,12.3118
478.14,12.3082
479.141,12.3041
480.14,12.2989
481.141,12.2946
482.14,12.2908
483.141,12.2874
484.14,12.2826
485.141,12.2794
486.14,12.2739
487.141,12.2701
488.14,12.2661
489.141,12.2608
490.14,12.2565
491.14,12.2529
492.14,12.2483
493.141,12.2437
494.14,12.2398
495.14,12.2361
496.14,12.2311
497.14,12.2272
498.141,12.223
499.14,12.2188
500.14,12.2142
501.14,12.2101
502.141,12.2066
503.141,12.2014
504.14,12.1974
505.141,12.1929
506.141,12.1884
507.14,12.1845
508.14,12.1791
509.141,12.176
510.14,12.172
511.14,12.1683
512.14,12.1655
513.14,12.1611
514.141,12.1585
515.14,12.1538
516.14,12.1494
517.141,12.146
518.14,12.1421
519.14,12.1381
520.141,12.1343
521.141,12.1302
522.14,12.1267
523.14,12.1228
524.141,12.119
525.141,12.1161
526.141,12.1117
527.14,12.1075
528.14,12.1029
529.141,12.098
530.141,12.0934
531.14,12.0898
532.14,12.0844
533.141,12.0805
534.14,12.0758
535.14,12.0723
536.141,12.0668
537.14,12.0638
538.14,12.0593
539.14,12.0552
540.14,12.0503
541.14,12.0467
542.141,12.0432
543.141,12.0393
544.14,12.0354
545.14,12.0314
546.14,12.0281
547.141,12.0243
548.141,12.021
549.14,12.0177
550.141,12.013
551.141,12.0098
552.141,12.0062
553.14,12.0021
554.14,11.9978
555.14,11.994
556.14,11.991
557.14,11.9879
558.14,11.9841
559.14,11.9804
560.141,11.9763
561.141,11.972
562.14,11.9678
563.14,11.9642
564.14,11.9597
565.141,11.9548
566.14,11.9502
567.14,11.9472
568.14,11.9404
569.141,11.9378
570.141,11.9347
571.14,11.931
572.14,11.9269
573.14,11.9226
574.14,11.9188
575.14,11.9139
576.14,11.9101
577.14,11.9049
578.141,11.9014
579.141,11.8979
580.141,11.8926
581.141,11.8899
582.141,11.8862
583.14,11.8807
584.14,11.877
585.14,11.8752
586.14,11.8697
587.141,11.8681
588.141,11.8641
589.141,11.8602
590.141,11.8563
591.14,11.8521
592.14,11.848
593.14,11.8441
594.14,11.8393
595.141,11.8367
596.141,11.8325
597.141,11.8294
598.141,11.8247
599.14,11.8195
600.14,11.8166
601.141,11.8136
602.141,11.8069
603.141,11.8066
604.14,11.802
605.14,11.798
606.14,11.7945
607.14,11.79
608.141,11.7866
609.141,11.782
610.141,11.7783
611.142,11.7758
612.14,11.7713
613.141,11.7677
614.141,11.7642
615.14,11.7592
616.14,11.7562
617.14,11.7518
618.14,11.7481
619.14,11.7451
620.14,11.7411
621.14,11.7378
622.14,11.7337
623.14,11.73
624.14,11.7255
625.14,11.7234
626.14,11.7178
627.14,11.7116
628.14,11.7115
629.14,11.7078
630.141,11.7042
631.141,11.701
632.141,11.6961
633.141,11.6922
634.14,11.6888
635.141,11.6855
636.141,11.6819
637.141,11.6778
638.14,11.6747
639.14,11.6703
640.14,11.6663
641.14,11.6624
642.14,11.6587
643.14,11.6552
644.14,11.6511
645.14,11.6476
646.14,11.6438
647.14,11.6407
648.14,11.6358
649.14,11.6323
650.141,11.6297
651.141,11.6244
652.141,11.6212
653.141,11.617
654.14,11.6134
655.141,11.6099
656.141,11.6065
657.14,11.6014
658.14,11.5984
659.14,11.595
660.141,11.5909
661.141,11.5882
662.141,11.5846
663.14,11.5798
664.14,11.5764
665.141,11.5708
666.141,11.5684
667.141,11.5652
668.14,11.561
669.14,11.5571
670.14,11.5538
671.14,11.5494
672.14,11.5449
673.141,11.5423
674.141,11.5372
675.141,11.5336
676.14,11.53
677.14,11.5256
678.14,11.5222
679.14,11.5176
680.141,11.5142
681.141,11.5107
682.141,11.5071
683.14,11.5043
684.14,11.5005
685.141,11.4968
686.14,11.4949
687.141,11.4897
688.141,11.4873
689.141,11.4828
690.14,11.4794
691.141,11.4771
692.141,11.4722
693.141,11.4684
694.14,11.4664
695.14,11.4639
696.141,11.4594
697.141,11.4551
698.14,11.4528
699.14,11.4487
700.14,11.4471
701.14,11.4422
702.141,11.4393
703.141,11.4361
704.14,11.4323
705.14,11.4295
706.141,11.425
707.14,11.4208
708.141,11.4189
709.14,11.4151
710.141,11.4109
711.14,11.4066
712.141,11.4033
713.141,11.399
714.14,11.3953
715.141,11.3909
716.14,11.3881
717.141,11.3842
718.141,11.3815
719.141,11.3756
720.14,11.3736
721.141,11.3709
722.141,11.3695
723.141,11.3607
724.14,11.358
725.141,11.3548
726.141,11.3513
727.14,11.3472
728.141,11.3443
729.14,11.3404
730.141,11.3359
731.141,11.3323
732.14,11.329
733.141,11.3245
734.14,11.3212
735.141,11.3171
736.14,11.3141
737.141,11.3097
738.14,11.3054
739.14,11.3019
740.141,11.2989
741.14,11.2958
742.141,11.2918
743.141,11.2885
744.14,11.2857
745.141,11.2827
746.14,11.2793
747.141,11.2755
748.141,11.2718
749.141,11.2683
750.14,11.2652
751.14,11.2615
752.14,11.258
753.14,11.2551
754.14,11.2512
755.14,11.2475
756.14,11.2451
757.14,11.2402
758.141,11.2375
759.141,11.234
760.141,11.2297
761.141,11.2266
762.141,11.2237
763.141,11.2183
764.14,11.2152
765.141,11.2122
766.141,11.2084
767.141,11.2037
768.141,11.2019
769.141,11.1982
770.141,11.1948
771.141,11.1913
772.141,11.1872
773.141,11.1828
774.14,11.1797
775.14,11.1759
776.14,11.1719
777.14,11.1696
778.14,11.165
779.14,11.162
780.14,11.1581
781.14,11.1542
782.14,11.1504
783.14,11.1476
784.141,11.1436
785.141,11.1395
786.141,11.1368
787.14,11.1336
788.14,11.1311
789.14,11.1258
790.14,11.1227
791.14,11.119
792.14,11.1159
793.14,11.113
794.14,11.1092
795.14,11.1066
796.14,11.1023
797.14,11.0978
798.14,11.0958
799.14,11.0923
800.14,11.0877
801.141,11.0844
802.141,11.0815
803.14,11.0779
804.14,11.0732
805.14,11.071
806.14,11.0692
807.14,11.0659
808.141,11.0628
809.141,11.058
810.14,11.0568
811.14,11.0535
812.14,11.05
813.141,11.046
814.141,11.0437
815.14,11.0404
816.141,11.0364
817.14,11.0338
818.14,11.0284
819.141,11.0262
820.14,11.0227
821.14,11.0192
822.141,11.015
823.14,11.0104
824.14,11.0072
825.141,11.0029
826.141,10.9998
827.141,10.9962
828.141,10.9924
829.141,10.9895
830.14,10.9861
831.14,10.9821
832.141,10.9783
833.141,10.9754
834.141,10.9712
835.141,10.9684
836.14,10.9649
837.14,10.9607
838.14,10.9574
839.141,10.9542
840.141,10.9517
841.141,10.9473
842.14,10.944
843.14,10.9397
844.141,10.9374
845.141,10.9334
846.141,10.9307
847.14,10.9262
848.14,10.9225
849.14,10.9205
850.14,10.9167
851.14,10.9125
852.141,10.9109
853.141,10.9072
854.141,10.9024
855.141,10.8999
856.14,10.8963
857.141,10.8919
858.141,10.8882
859.141,10.8861
860.141,10.8824
861.141,10.879
862.141,10.8753
863.141,10.8724
864.141,10.8691
865.141,10.8647
866.14,10.8608
867.14,10.8586
868.14,10.8554
869.141,10.8517
870.141,10.848
871.141,10.8438
872.141,10.8404
873.141,10.8379
874.141,10.8333
875.14,10.8314
876.14,10.8287
877.14,10.826
878.14,10.8232
879.14,10.8203
880.14,10.8169
881.14,10.8131
882.141,10.8105
883.141,10.807
884.14,10.8042
885.141,10.8005
886.141,10.7974
887.141,10.7957
888.14,10.7914
889.14,10.7911
890.14,10.7861
891.14,10.7817
892.14,10.7784
893.14,10.7742
894.141,10.7713
895.141,10.7683
896.141,10.7619
897.141,10.7616
898.14,10.7566
899.14,10.7544
900.14,10.7512
901.14,10.7471
902.141,10.7447
903.141,10.7415
904.141,10.7372
905.141,10.7343
906.141,10.731
907.14,10.7267
908.14,10.7239
909.14,10.7207
910.14,10.7172
911.141,10.7139
912.141,10.7096
913.141,10.707
914.141,10.7032
915.14,10.6987
916.14,10.695
917.14,10.6919
918.14,10.6879
919.14,10.684
920.14,10.681
921.14,10.6778
922.14,10.6744
923.14,10.6714
924.14,10.6685
925.141,10.6649
926.141,10.6612
927.141,10.6579
928.14,10.6544
929.14,10.652
930.14,10.6496
931.14,10.6465
932.141,10.6424
933.14,10.6396
934.14,10.637
935.141,10.634
936.141,10.6315
937.141,10.6282
938.14,10.6253
939.14,10.6216
940.14,10.6203
941.141,10.6159
942.14,10.6128
943.14,10.6103
944.14,10.6079
945.14,10.6046
946.14,10.6011
947.14,10.5989
948.14,10.5955
949.139,10.5927
950.139,10.5892
951.139,10.5855
